101111000010001111010111000010101011110001001100110011001100110110111100001000111101011100001010101111000011100001010001111011001011101111110101110000101000111110111011101000111101011100001010101110111100110011001100110011011011101111110101110000101000111110111100000011110101110000101001101110111111010111000010100011111011101111001100110011001100110110111011101000111101011100001010101110110010001111010111000010101011101111001100110011001100110110111011101000111101011100001010101110110010001111010111000010100000000000000000000000000000000000000000000000000000000000000000001110110010001111010111000010100011110000001111010111000010100100111100100011110101110000101001001111001110101110000101000111110011110100011001100110011001101000111101001110000101000111101100001111010100110011001100110011010011110101011100001010001111011000111101011010111000010100011111001111010111010111000010100011110011110110000000000000000000000000111101100000101000111101011100001111011000010100011110101110000011110110000111101011100001010000111101100010100011110101110001001111011000111101011100001010010011110110011100001010001111011000111101100111000010100011110110001111011010000101000111101011100011110110011001100110011001101000111101100011110101110000101001001111010111010111000010100011110011110101010001111010111000010100111101001100110011001100110011001111010000010100011110101110000011110011100001010001111010111000111100101110000101000111101100001111001011100001010001111011000011110010101110000101000111101100111100101000111101011100001010001111001010001111010111000010100011110010011001100110011001101000111100100110011001100110011010001111001001100110011001100110100011110010011001100110011001101000111100100011110101110000101001001111001001100110011001100110100011110010111000010100011110110000111100101110000101000111101100001111001100110011001100110011010011110010100011110101110000101000111100101110000101000111101100001111001100001010001111010111000011110011000010100011110101110000111100110000101000111101011100001111001100001010001111010111000011110100000000000000000000000000111101000010100011110101110001001111010010111000010100011110110011110100111101011100001010010000111101010001111010111000010100001111010100001010001111010111000011110101001100110011001100110100111101100001111010111000010100001111011001111010111000010100100011110111000010100011110101110000111101110110011001100110011010001111011111010111000010100011110011111000001010001111010111000100111110001001100110011001100110001111100100001010001111010111000011111001101111010111000010100100111110100011101011100001010010001111101001111010111000010100100011111010101000111101011100001100111110101001100110011001100110001111101010011001100110011001100011111010011110000101000111101100111110100011101011100001010010001111100101010001111010111000010011110111001111010111000010100100111011011101011100001010001111101111011000000000000000000000001011110110101000111101011100001110111101100100011110101110000101101111010110101110000101000111111011110101000111101011100001010010111101001110000101000111101100101111010001010001111010111000011011110011001100110011001100110110111100011101011100001010001111101111000011100001010001111011001011110000111000010100011110110010111100011000010100011110101110101111000110000101000111101011101011110001110101110000101000111110111100100110011001100110011010101111001010001111010111000010101011110010100011110101110000101010111100100001010001111010111000101111001000010100011110101110001011110000111000010100011110110010111100001110000101000111101100101111000111010111000010100011111011110010000101000111101011100010111100100001010001111010111000101111000111010111000010100011111011110010001111010111000010100110111100100001010001111010111000101111001000111101011100001010011011110010000101000111101011100010111100100001010001111010111000101111000110000101000111101011101011110010000101000111101011100010111100011101011100001010001111101111000000111101011100001010011011110001001100110011001100110110111100000011110101110000101001101111000010001111010111000010101011110001110101110000101000111110111100100110011001100110011010101111001010001111010111000010101011110010011001100110011001101010111100100011110101110000101001101111001000111101011100001010011011110010101110000101000111101110111100101011100001010001111011101111001010001111010111000010101011110010000101000111101011100010111100100001010001111010111000101111001000111101011100001010011011110001110101110000101000111110111100101000111101011100001010101111001010111000010100011110111011110010111000010100011110110010111100110000101000111101011100101111001100001010001111010111001011110011010111000010100011110110111100101000111101011100001010101111001011100001010001111011001011110010100011110101110000101010111100101000111101011100001010101111001010111000010100011110111011110010101110000101000111101110111100100011110101110000101001101111000011100001010001111011001011110000001111010111000010100110111011110011001100110011001101101110111100110011001100110011011011101101110101110000101000111110111011001000111101011100001010001110110111010111000010100011110011110000111000010100011110110000111100100011110101110000101001001111001010111000010100011110110011110010111000010100011110110000111100110101110000101000111101001111001101011100001010001111010011110011100001010001111010111000111100101110000101000111101100001111001100110011001100110011010011110011010111000010100011110100111100110101110000101000111101001111001011100001010001111011000011110010101110000101000111101100111100101000111101011100001010001111001000111101011100001010010011110010000101000111101011100000111100001110000101000111101100001111000000111101011100001010010011101100100011110101110000101010111011101000111101011100001010101110111111010111000010100011111011110000001111010111000010100110111100010011001100110011001101101111001001100110011001100110101011110010111000010100011110110010111100111000010100011110101110101111001101011100001010001111011011110010111000010100011110110010111100100011110101110000101001101111000100110011001100110011011011110000111000010100011110110010111011111101011100001010001111101111000011100001010001111011001011110000100011110101110000101010111100001000111101011100001010101111000000111101011100001010011011101111110101110000101000111110111011110011001100110011001101101110101010001111010111000010101011101101110101110000101000111100111011011101011100001010001111001110111111010111000010100011110011110000100011110101110000101000111100001110000101000111101100001111000011100001010001111011000011110000111000010100011110110000111100000011110101110000101001001111000111010111000010100011110011110010100011110101110000101000111100111101011100001010001111001111010001100110011001100110100011110101001100110011001100110100111101011101011100001010001111001111011001010001111010111000010011110111000010100011110101110000111101111101011100001010001111001111100010001010001111010111000011111001000101000111101011100000111110011010111000010100011111001111100111111010111000010100100011111010001000010100011110110000111110100100101000111101011100001111101001110011001100110011010011111010101011100001010001111100111110101001011100001010001111001111101000111010111000010100100011111001000001010001111010111000111101101010111000010100011111101110110010001111010111000010101011110101111010111000010100100010111101100101110000101000111101101111011001000111101011100001011011110110001010001111010111000110111101100010100011110101110001101111011001010001111010111000011011110110010001111010111000010110111101100001010001111010111000101111010111010111000010100011111011110101110101110000101000111110111101011101011100001010001111101111010111010111000010100011111011110101101011100001010001111110111101011000010100011110101110101111010101011100001010001111011011110101100001010001111010111010111101011101011100001010001111101111010111000010100011110101111011110101101011100001010001111110111101011001100110011001100110101111010111000010100011110101111011110101110101110000101000111110111101011101011100001010001111101111011000000000000000000000001011110110000101000111101011100010111101100010100011110101110001101111011000001010001111010111001011110101110101110000101000111110111101011010111000010100011111101111010110101110000101000111111011110101100001010001111010111010111101010101110000101000111101101111010101110000101000111101101011110101010111000010100011110110111101010011001100110011001101101111010100110011001100110011011011110101001100110011001100110110111101010001111010111000010100101111010100110011001100110011011011110101001100110011001100110110111101011000010100011110101110101111010111000010100011110101111011110101101011100001010001111110111101011001100110011001100110101111010110011001100110011001101011110101111010111000010100100010111101100000000000000000000000101111011000001010001111010111001011110110000101000111101011100010111101011110101110000101001000101111010111010111000010100011111011110101010111000010100011110110111101011001100110011001100110101111010110000101000111101011101011110101011100001010001111011010111101010100011110101110000101101111010101011100001010001111011011110101010111000010100011110110111101010011001100110011001101101111010011100001010001111011001011110100101110000101000111101110111101001011100001010001111011101111010001111010111000010100101011110100001111010111000010100110111100111101011100001010001111101111001011100001010001111011001011110001110101110000101000111110111100001000111101011100001010101111000111010111000010100011111011110010000101000111101011100010111100100001010001111010111000101111000100110011001100110011011011110000111000010100011110110010111011111101011100001010001111101110110010001111010111000010101011101111110101110000101000111110111011111101011100001010001111101110111010001111010111000010101011101101110101110000101000111110111011110011001100110011001101101111000010001111010111000010101011110000001111010111000010100110111100001000111101011100001010101111000011100001010001111011001011110000111000010100011110110010111100001000111101011100001010101111000000111101011100001010011011110000001111010111000010100110111100010011001100110011001101101111000110000101000111101011101011110001001100110011001100110110111100011101011100001010001111101111000111010111000010100011111011110001110101110000101000111110111100011101011100001010001111101111001000010100011110101110001011110010001111010111000010100110111100101011100001010001111011101111001001100110011001100110101011110010100011110101110000101010111100101011100001010001111011101111001101011100001010001111011011110011101011100001010001111110111100110011001100110011001101101111001111010111000010100011111011110100000000000000000000000010111101000001010001111010111000101111001111010111000010100011111011110011110101110000101000111110111100111101011100001010001111101111001111010111000010100011111011110100000101000111101011100010111101000011110101110000101001101111010001111010111000010100101011110100011110101110000101001010111101000111101011100001010010101111010000111101011100001010011011110100001010001111010111000110111101000001010001111010111000101111010000111101011100001010011011110100011110101110000101001010111101001010001111010111000011101111010010111000010100011110111011110100101110000101000111101110111101001000111101011100001010101111010010100011110101110000111011110100011001100110011001101010111101001011100001010001111011101111010010100011110101110000111011110100111000010100011110110010111101001111010111000010100100101111010100001010001111010111001011110101000010100011110101110010111101001100110011001100110011101111010011100001010001111011001011110100101110000101000111101110111101001100110011001100110011101111010001111010111000010100101011110100001010001111010111000110111101000010100011110101110001101111010001111010111000010100101011110100011110101110000101001010111101000101000111101011100001101111010001010001111010111000011011110100001111010111000010100110111101000110011001100110011010101111010001010001111010111000011011110100001111010111000010100110111101000110011001100110011010101111010000101000111101011100011011110100010100011110101110000110111101000011110101110000101001101111010000111101011100001010011011110100011110101110000101001010111101001100110011001100110011101111010100001010001111010111001011110100111101011100001010010010111101001111010111000010100100101111010011100001010001111011001011110100101000111101011100001110111101001000111101011100001010101111010010001111010111000010101011110100101110000101000111101110111101001100110011001100110011101111010010111000010100011110111011110100100011110101110000101010111101000101000111101011100001101111010001010001111010111000011011110100100011110101110000101010111101001010001111010111000011101111010010111000010100011110111011110100001010001111010111000110111101000000000000000000000000101111001111010111000010100011111011110011010111000010100011110110111100101110000101000111101100101111001000111101011100001010011011110001100001010001111010111010111100000011110101110000101001101111000010001111010111000010101011101101110101110000101000111100111011110011001100110011001101001111000110000101000111101011100011110001100001010001111010111000111100100001010001111010111000001111001100110011001100110011010011110011100001010001111010111000111100111101011100001010001111001111010000000000000000000000000011110100010100011110101110000100111101000111101011100001010010001111010010100011110101110000110011110100101110000101000111101100111101000111101011100001010010001111010000111101011100001010010011110010111000010100011110110000111100011101011100001010001111001110111010001111010111000010101011101010100011110101110000101010111011111101011100001010001111101111000011100001010001111011001011110000001111010111000010100110111100100011110101110000101001101111001010001111010111000010101011110010101110000101000111101110111100100001010001111010111000101111000011100001010001111011001011101111110101110000101000111100111011001000111101011100001010001110110111010111000010100011110011101111001100110011001100110100111011011101011100001010001111001110111111010111000010100011110011110001001100110011001100110100111100111000010100011110101110001111010010111000010100011110110011110110000000000000000000000000111101100111101011100001010010001111011100000000000000000000000011110111100011110101110000101000111110000010100011110101110001001111100011011100001010001111010011111001100101000111101011100000111110100010101110000101001000001111101001011110101110000101000011111010011101011100001010010000111110101000000000000000000000001111101001101011100001010010000011111010001100001010001111011000111110010000010100011110101110001111011011010111000010100011111011110010000101000111101011100010111101110101110000101000111101101111100001011100001010001111011011111000011110101110000101001010111110000011100001010001111011101111011111100001010001111011001011110111100110011001100110011010111101110011110101110000101001101111011011100001010001111011001011110110100001010001111010111010111101100100011110101110000101101111011000011110101110000101001011110110000111101011100001010010111101100011110101110000101001101111011001000111101011100001011011110110001111010111000010100110111101100100011110101110000101101111011000111101011100001010011011110110000111101011100001010010111101100000000000000000000000101111011000001010001111010111001011110110000000000000000000000010111101011101011100001010001111101111010111101011100001010010001011110101111010111000010100100010111101100000101000111101011100101111011000000000000000000000001011110110000000000000000000000010111101011110101110000101001000101111010110000101000111101011101011110110000000000000000000000010111101100000101000111101011100101111011000111101011100001010011011110110010001111010111000010110111101100100011110101110000101101111011001010001111010111000011011110110011100001010001111011010111101100111101011100001010010101111011001111010111000010100101011110110100110011001100110011010111101101001100110011001100110101111011010001111010111000010101011110110011001100110011001101010111101100101000111101011100001101111011001100110011001100110101011110110011100001010001111011010111101101010001111010111000011101111011010100011110101110000111011110110100011110101110000101010111101101000010100011110101110101111011010001111010111000010101011110110100110011001100110011010111101101000111101011100001010101111011011100001010001111011001011110110111010111000010100100010111101101101011100001010001111101111011011100001010001111011001011110110110101110000101000111110111101101110101110000101001000101111011011100001010001111011001011110110111010111000010100100010111101101111010111000010100100101111011011010111000010100011111011110110101110000101000111101110111101101000111101011100001010101111011010001111010111000010101011110110011110101110000101001010111101101000010100011110101110101111011001110000101000111101101011110110011100001010001111011010111101100100011110101110000101101111011000110011001100110011011011110110000101000111101011100010111101100000000000000000000000101111010110011001100110011001101011110101010001111010111000010110111101010101110000101000111101101111010100110011001100110011011011110100111000010100011110110010111101001000111101011100001010101111010000111101011100001010011011110011110101110000101000111110111100111010111000010100011111101111001100110011001100110011011011110011010111000010100011110110111100110101110000101000111101101111001101011100001010001111011011110011100001010001111010111010111100110011001100110011001101101111001011100001010001111011001011110010101110000101000111101110111100110000101000111101011100101111001100001010001111010111001011110011000010100011110101110010111100101110000101000111101100101111001011100001010001111011001011110010011001100110011001101010111100011101011100001010001111101111000100110011001100110011011011110000100011110101110000101010111100000011110101110000101001101111000000111101011100001010011011101111110101110000101000111110111011011101011100001010001111001110110010001111010111000010101011101100100011110101110000101010111010101000111101011100001010101110110010001111010111000010100011101100100011110101110000101000111011011101011100001010001111001110111100110011001100110011010011101111110101110000101000111100111100000011110101110000101001001111000110000101000111101011100011110000111000010100011110110000111100001110000101000111101100001111000010001111010111000010100011110000111000010100011110110000111100001000111101011100001010001111000010001111010111000010100011110001100001010001111010111000111100000011110101110000101001001110111100110011001100110011010011101100100011110101110000101010111011001000111101011100001010101110110111010111000010100011111011101100100011110101110000101000000000000000000000000000000000101110111111010111000010100011111011101111110101110000101000111110111011111101011100001010001111101110111100110011001100110011011011101110100011110101110000101010111011110011001100110011001101101110111100110011001100110011011011110000100011110101110000101010111100000011110101110000101001101110111111010111000010100011111011101101110101110000101000111110111010101000111101011100001010000000000000000000000000000000000011101101110101110000101000111100111100000011110101110000101001001111000111010111000010100011110011110010011001100110011001101000111100101011100001010001111011001111001010001111010111000010100011110010100011110101110000101000111100100110011001100110011010001111001011100001010001111011000011110011010111000010100011110100111100111101011100001010001111001111010000000000000000000000000011110100000000000000000000000000111101000000000000000000000000001111001111010111000010100011110011110100000000000000000000000000111100110000101000111101011100001111001000111101011100001010010011110000111000010100011110110000111011001000111101011100001010101111000000111101011100001010011011110010101110000101000111101110111100111101011100001010001111101111010001100110011001100110101011110100100011110101110000101010111101001011100001010001111011101111010011100001010001111011001011110101000010100011110101110010111101010001111010111000010100101111010100110011001100110011011011110100111000010100011110110010111101001100110011001100110011101111010011100001010001111011001011110100111000010100011110110010111101001110000101000111101100101111010011100001010001111011001011110100111101011100001010010010111101001111010111000010100100101111010001111010111000010100101011110100101000111101011100001110111101001011100001010001111011101111010011001100110011001100111011110100101110000101000111101110111101001011100001010001111011101111010010001111010111000010101011110100011110101110000101001010111101010000101000111101011100101111010100110011001100110011011011110101000010100011110101110010111101000011110101110000101001101111001010111000010100011110111011101101110101110000101000111100111100001110000101000111101100001111001110000101000111101011100011110100111101011100001010010000111101100010100011110101110001001111011101000111101011100001010011111000010001111010111000010100111110010000000000000000000000001111100101010001111010111000010011111001011110101110000101001000111110011000000000000000000000001111100100011110101110000101000011111000011100001010001111011000111101100100011110101110000101101111001010111000010100011110111011110111001111010111000010100110111110001000101000111101011100101111100010111101011100001010011011111000101000111101011100001110111110000101011100001010001111101111100000101000111101011100011011111000000011110101110000101010111101111110101110000101001000101111011111000010100011110101111011110111100110011001100110011010111101111000111101011100001010101111011101011100001010001111011011110111011001100110011001101010111101110110011001100110011010101111011101100110011001100110101011110111010111000010100011110110111101110101000111101011100001101111011100111101011100001010011011110111001010001111010111000110111101110010100011110101110001101111011101010001111010111000011011110111011001100110011001101010111101110110011001100110011010101111011101000111101011100001011011110111010001111010111000010110111101110101110000101000111101101111011101010001111010111000011011110111001100110011001100110110111101110011001100110011001101101111011100111101011100001010011011110111001111010111000010100110111101110001111010111000010100101111011100011110101110000101001011110111000111101011100001010010111101110011001100110011001101101111011100110011001100110011011011110111010100011110101110000110111101110110011001100110011010101111011101110000101000111101101011110111011001100110011001101010111101110100011110101110000101101111011101000111101011100001011011110111011001100110011001101010111101110111000010100011110110101111011110000101000111101011101011110111100011110101110000101010111101111001100110011001100110101111011110011001100110011001101011110111110000101000111101011110111101111100001010001111010111101111011111000010100011110101111011110111110101110000101000111110111110000000000000000000000000101111100000000101000111101011101011110111111000010100011110110010111110000000010100011110101110101111100000000000000000000000001011110111111010111000010100100010111101111111010111000010100100101111011111110101110000101001001011111000000101000111101011100010111110000001010001111010111000101111100000001111010111000010101011110111111101011100001010010010111101111111010111000010100100101111011111101011100001010010001011110111101110000101000111101110111101111010001111010111000011101111011110000101000111101011101011110111011100001010001111011010111101110101000111101011100001101111011100111101011100001010011011110111000111101011100001010010111101101110101110000101001000101111011011100001010001111011001011110110110101110000101000111110111101101110101110000101001000101111011010111000010100011110111011110110101000111101011100001110111101101000111101011100001010101111011010011001100110011001101011110110101000111101011100001110111101101001100110011001100110101111011010100011110101110000111011110110101000111101011100001110111101101010001111010111000011101111011010001111010111000010101011110110100011110101110000101010111101101000111101011100001010101111011010001111010111000010101011110110100110011001100110011010111101101001100110011001100110101111011010001111010111000010101011110110011110101110000101001010111101100101110000101000111101101111011001110000101000111101101011110110011110101110000101001010111101101001100110011001100110101111011010000101000111101011101011110110100001010001111010111010111101101000010100011110101110101111011010000101000111101011101011110110011001100110011001101010111101100011110101110000101001101111011000110011001100110011011011110110001111010111000010100110111101100010100011110101110001101111011001000111101011100001011011110110010001111010111000010110111101100011001100110011001101101111011000010100011110101110001011110110000000000000000000000010111101100001010001111010111000101111011000101000111101011100011011110110001111010111000010100110111101100011001100110011001101101111011000110011001100110011011011110110001111010111000010100110111101100010100011110101110001101111011000010100011110101110001011110110000111101011100001010010111101100011110101110000101001101111011000010100011110101110001011110110000010100011110101110010111101011100001010001111010111101111010110000101000111101011101011110101010111000010100011110110111101010100011110101110000101101111010100110011001100110011011011110100100011110101110000101010111101000101000111101011100001101111010000010100011110101110001011110100000000000000000000000010111100111010111000010100011111101111001110000101000111101011101011110011000010100011110101110010111100101011100001010001111011101111001010111000010100011110111011110010011001100110011001101010111100100001010001111010111000101111000100110011001100110011011011101111110101110000101000111110111011011101011100001010001111101110111010001111010111000010101011110000100011110101110000101010111100100001010001111010111000101111001101011100001010001111011011110100001010001111010111000110111101001110000101000111101100101111010110101110000101000111111011110110001010001111010111000110111101100101000111101011100001101111011001011100001010001111011011110110011110101110000101001010111101100111000010100011110110101111011001100110011001100110101011110110011100001010001111011010111101100111000010100011110110101111011001100110011001100110101011110110010001111010111000010110111101100100011110101110000101101111011001100110011001100110101011110110011100001010001111011010111101100111101011100001010010101111011010000101000111101011101011110110100011110101110000101010111101101000010100011110101110101111011010000101000111101011101011110110011110101110000101001010111101101000111101011100001010101111011010000101000111101011101011110110011001100110011001101010111101100101000111101011100001101111011000110011001100110011011011110110001010001111010111000110111101100011110101110000101001101111011000111101011100001010011011110101111010111000010100100010111101010001111010111000010100101111001111010111000010100011111011110000111000010100011110110000111100001110000101000111101100001111001110101110000101000111110011110101100110011001100110011000111101101101011100001010001111001111100000100011110101110000110011111000111001100110011001101000111110010111000010100011110110001111100111001100110011001100110011111001110100011110101110000100111110011101011100001010001111001111100101101011100001010010000011111000100000000000000000000000111101100010100011110101110001101111010000000000000000000000001011110111110011001100110011001110111110001011110101110000101001101111100011110101110000101001001011111000110011001100110011001110111110001000111101011100001010101111100001100110011001100110101011111000010011001100110011001110111110000010111000010100011111101111100000001010001111010111001011110111110011001100110011001110111101111101011100001010001111101111011111001100110011001100111011110111110011001100110011001110111101111011100001010001111011101111011110101110000101000111111011110111101110000101000111101110111101111000111101011100001010101111011110111000010100011110111011110111101000111101011100001110111101111001100110011001100110101111011110011001100110011001101011110111100011110101110000101010111101111000010100011110101110101111011101110000101000111101101011110111011001100110011001101010111101110100011110101110000101101111011101000111101011100001011011110111001100110011001100110110111101110001010001111010111000101111011100000000000000000000001011110111000000000000000000000010111101110000101000111101011100101111011100000000000000000000001011110111000010100011110101110010111101110000000000000000000000101111011011110101110000101001001011110110111101011100001010010010111101101110000101000111101100101111011011100001010001111011001011110110110101110000101000111110111101101111010111000010100100101111011011000010100011110101111011110110101000111101011100001110111101101100001010001111010111101111011011110101110000101001001011110110111101011100001010010010111101110000000000000000000000101111011100000000000000000000001011110111000000000000000000000010111101101111010111000010100100101111011011101011100001010010001011110110111000010100011110110010111101110001111010111000010100101111011101000111101011100001011011110111010100011110101110000110111101110100011110101110000101101111011100110011001100110011011011110111000010100011110101110010111101110000000000000000000000101111011100011110101110000101001011110111010111000010100011110110111101110101000111101011100001101111011101010001111010111000011011110111000000000000000000000010111101101011100001010001111011101111011010101110000101000111111011110110110011001100110011001110111101101100110011001100110011101111011010011001100110011001101011110110101000111101011100001110111101101000111101011100001010101111011001110000101000111101101011110110010001111010111000010110111101100001111010111000010100101111010111010111000010100011111011110101011100001010001111011010111101010101110000101000111101101111010100011110101110000101001011110101010001111010111000010110111101010111000010100011110110101111010100011110101110000101001011110100110011001100110011001110111101001000111101011100001010101111010000010100011110101110001011110011010111000010100011110110111100111010111000010100011111101111010001100110011001100110101011110101001100110011001100110110111101011001100110011001100110101111010100110011001100110011011011110100101000111101011100001110111101000001010001111010111000101111001110101110000101000111111011110001110101110000101000111110111100001000111101011100001010101111001010001111010111000010101011110100011110101110000101001010111101011100001010001111010111101111011000110011001100110011011011110110100011110101110000101010111101100111101011100001010010101111011000011110101110000101001011110101010111000010100011110110111101001111010111000010100100101111010010111000010100011110111011110101000010100011110101110010111101010011001100110011001101101111010100110011001100110011011011110101000111101011100001010010111101001110000101000111101100101111010010001111010111000010101011110100011001100110011001101010111101000110011001100110011010101111010001010001111010111000011011110100001010001111010111000110111100111010111000010100011111101111001100110011001100110011011011110010100011110101110000101010111100101000111101011100001010101111001100110011001100110011011011110011001100110011001100110110111100110000101000111101011100101111001010001111010111000010101011110010000101000111101011100010111100011000010100011110101110101111000111010111000010100011111011110010100011110101110000101010111100101000111101011100001010101111000111010111000010100011110000000000000000000000000000000000111100001110000101000111101100001110101010001111010111000010101011110001110101110000101000111110111100100001010001111010111000101110110010001111010111000010100011101110100011110101110000101000111011101000111101011100001010000000000000000000000000000000000000000000000000000000000000000000000000000000000000000000000000101110101010001111010111000010101011101111110101110000101000111110111100011000010100011110101110101111001010111000010100011110111011110100100011110101110000101010111101011001100110011001100110101111011000001010001111010111001011110110000010100011110101110010111101011100001010001111010111101111011000001010001111010111001011110110001111010111000010100110111101101010111000010100011111101111011010101110000101000111111011110110100011110101110000101010111101100011110101110000101001101111011000011110101110000101001011110101111010111000010100100010111101100000101000111101011100101111011001000111101011100001011011110110100011110101110000101010111101101011100001010001111011101111011010111000010100011110111011110110100011110101110000101010111101100110011001100110011010101111011000111101011100001010011011110110000000000000000000000010111101010001111010111000010100101111010100011110101110000101001011110101101011100001010001111110111101101001100110011001100110101111011101000111101011100001011011110111100001010001111010111010111101110111101011100001010010101111011011010111000010100011111011110110000010100011110101110010111101000101000111101011100001101111001010001111010111000010101011110010001111010111000010100110111100011101011100001010001111001110111010001111010111000010100011110100011001100110011001101000111101101010111000010100011111001111100000011001100110011001100011111000110000101000111101011100111110010000000000000000000000001111100100001111010111000010100011111001000110011001100110011000111110001110011001100110011010001111100001010001111010111000010011110110000101000111101011100010111100101110000101000111101100101111011101111010111000010100101011111000110101110000101000111110111110010101000111101011100001101111100100111000010100011110111011111000110100011110101110000110111110000111101011100001010010101111100001010001111010111000011011111000001011100001010001111110111110000001010001111010111000101111100000010100011110101110001011111000001000111101011100001110111110000001111010111000010100101111100000011110101110000101001011111000000111101011100001010010111110000001111010111000010100101111100000101000111101011100011011111000000110011001100110011010111110000001010001111010111000101111100000001010001111010111001011111000000000000000000000000010111101111111010111000010100100101111011111101011100001010010001011110111100110011001100110011010111101110010100011110101110001101111011100110011001100110011011011110111101011100001010001111110111101111110101110000101001000101111011110111000010100011110111011110111110011001100110011001110111110000000101000111101011100101111100000000000000000000000001011110111110011001100110011001110111101111001100110011001100110101111011110100011110101110000111011110111011001100110011001101010111101110100011110101110000101101111011100001010001111010111001011110111010001111010111000010110111110000000111101011100001010101111100001010111000010100011111011111000010111000010100011110110111110000001010001111010111000101111011110011001100110011001101011110111001111010111000010100110111101110110011001100110011010101111011111100001010001111011001011111000000001010001111010111010111110000000111101011100001010101111011111110101110000101001001011110111110101110000101000111110111101111100110011001100110011101111100000101000111101011100011011111000010011001100110011001110111110000011001100110011001101101111100000010100011110101110001011111000000000000000000000000010111101111111010111000010100100101111011110001111010111000010101011110111010001111010111000010110111101110000101000111101011100101111011101111010111000010100101011111000000111101011100001010010111110000100110011001100110011101111100001000010100011110101111011111000000101000111101011100010111110000001100110011001100110101111100000010100011110101110001011110111101110000101000111101110111101101110000101000111101100101111011000011110101110000101001011110110001100110011001100110110111101101110000101000111101100101111011100111101011100001010011011110111000101000111101011100010111101110000101000111101011100101111011101000111101011100001011011110111011001100110011001101010111101101111010111000010100100101111011001110000101000111101101011110110001100110011001100110110111101100110011001100110011010101111011001111010111000010100101011110110100110011001100110011010111101101000111101011100001010101111011001010001111010111000011011110110010001111010111000010110111101100110011001100110011010101111011010000101000111101011101011110110010001111010111000010110111101100100011110101110000101101111011010001111010111000010101011110110110101110000101000111110111101101110000101000111101100101111011010001111010111000010101011110110010001111010111000010110111101100001010001111010111000101111011001111010111000010100101011110111001010001111010111000110111101110110011001100110011010101111011100111101011100001010011011110111000111101011100001010010111101110001010001111010111000101111011100001010001111010111001011110111000111101011100001010010111101110001111010111000010100101111011011000010100011110101111011110110001010001111010111000110111101010011001100110011001101101111010010111000010100011110111011110101010111000010100011110110111101101100001010001111010111101111011101011100001010001111011011110111011001100110011001101010111101111000111101011100001010101111011111100001010001111011001011110111111010111000010100100010111101110110011001100110011010101111011010000101000111101011101011110101000111101011100001010010111101001100110011001100110011101111011001010001111010111000011011110111100110011001100110011010111110000010111000010100011111101111100000001010001111010111001011110111100001010001111010111010111101101100001010001111010111101111011001110000101000111101101011110110101000111101011100001110111101110010100011110101110001101111011100110011001100110011011011110110100001010001111010111010111101010101110000101000111101101111010011001100110011001100111011110101111010111000010100100010111101100110011001100110011010101111011001000111101011100001011011110101110101110000101000111110111101010100011110101110000101101111010101011100001010001111011011110101010001111010111000010110111101010100011110101110000101101111010100110011001100110011011011110101010111000010100011110110111101011001100110011001100110101111010110011001100110011001101011110101100110011001100110011010111101011010111000010100011111101111011000001010001111010111001011110110001111010111000010100110111101101101011100001010001111101111011101100110011001100110101011110111101000111101011100001110111101111001100110011001100110101111011101100110011001100110101011110111000101000111101011100010111101110000101000111101011100101111011101110000101000111101101011110111111101011100001010010010111110000001010001111010111000101111011111101011100001010010001011110111011001100110011001101010111101110000000000000000000000101111011101110000101000111101101011110111111000010100011110110010111110000000000000000000000000101111011111101011100001010010001011111000000000000000000000000010111101111110000101000111101100101111011101011100001010001111011011110111001010001111010111000110111101110011110101110000101001101111011110111000010100011110111011111000000101000111101011100010111110000001100110011001100110101111100000000101000111101011101011110111111000010100011110110010111101111010111000010100011111101111011101010001111010111000011011110110111010111000010100100010111101100110011001100110011010101111010110101110000101000111111011110100010100011110101110000110111100001000111101011100001010001111001010001111010111000010100011110110010001111010111000010100111110000000010100011110101110001111100011100001010001111011000011111001010000101000111101011100111110011000111101011100001010001111100110010100011110101110000011111001100000000000000000000000111110010000101000111101011100001111011111001100110011001100110011110011101011100001010001111110111101100100011110101110000101101111100010000000000000000000001011111001010100011110101110000110111110011011001100110011001101101111100101110101110000101001001011111001001110000101000111101110111110010000000000000000000000101111100011100001010001111011001011111000110001111010111000010110111110001010100011110101110001101111100010010100011110101110001011111000011101011100001010010010111110000110101110000101001000101111100001011100001010001111011011111000011000010100011110110010111110000101011100001010001111101111100001010111000010100011111011111000010101110000101000111110111110000101000111101011100001101111100001010001111010111000011011111000010100011110101110000110111110000110011001100110011010101111100001100001010001111011001011111000010111000010100011110110111110000100011110101110000101101111100000111101011100001010011011111000001110000101000111101110111110000011110101110000101001101111100001000010100011110101111011111000001011100001010001111110111110000010100011110101110001101111100000011110101110000101001011111000000110011001100110011010111110000001111010111000010100101111100000101110000101000111111011111000001100110011001100110110111110000010111000010100011111101111100000101110000101000111111011111000001010001111010111000110111110000001100110011001100110101111100000101110000101000111111011111000001100110011001100110110111110000010100011110101110001101111100000101110000101000111111011111000001010001111010111000110111110000010001111010111000011101111100000101000111101011100011011111000001000111101011100001110111110000010111000010100011111101111100000100011110101110000111011111000001110000101000111101110111110000100011110101110000101101111100001000111101011100001011011111000010001111010111000010110111110000011110101110000101001101111100000111000010100011110111011111000001011100001010001111110111110000100001010001111010111101111100001001100110011001100111011111000010000101000111101011110111110000011100001010001111011101111100000101000111101011100011011111000001010001111010111000110111110000001100110011001100110101111100000001010001111010111001011110111110011001100110011001110111101111010001111010111000011101111011101110000101000111101101011110111010111000010100011110110111101110101110000101000111101101111011100110011001100110011011011110111000000000000000000000010111101101100001010001111010111101111011011001100110011001100111011110110101110000101000111101110111101101010111000010100011111101111011011000010100011110101111011110110101011100001010001111110111101101000111101011100001010101111011001011100001010001111011011110110010100011110101110000110111101100100011110101110000101101111011000111101011100001010011011110110001111010111000010100110111101100011001100110011001101101111011000111101011100001010011011110110001100110011001100110110111101100011001100110011001101101111011000110011001100110011011011110110001111010111000010100110111101100001111010111000010100101111011000010100011110101110001011110110001010001111010111000110111101100011001100110011001101101111011000010100011110101110001011110110000010100011110101110010111101011110101110000101001000101111011000000000000000000000001011110110000000000000000000000010111101011110101110000101001000101111010111010111000010100011111011110101100001010001111010111010111101011001100110011001100110101111010110011001100110011001101011110101101011100001010001111110111101011010111000010100011111101111010101011100001010001111011011110101001100110011001100110110111101010000101000111101011100101111010100011110101110000101001011110100111101011100001010010010111101001110000101000111101100101111010011001100110011001100111011110100110011001100110011001110111101001100110011001100110011101111010011100001010001111011001011110100111000010100011110110010111101001010001111010111000011101111010010111000010100011110111011110100011110101110000101001010111101000011110101110000101001101111010000000000000000000000001011110011010111000010100011110110111100101011100001010001111011101111001000111101011100001010011011110010101110000101000111101110111100100001010001111010111000101111000110000101000111101011101011101111001100110011001100110110111011001000111101011100001010001110110010001111010111000010100011101101110101110000101000111110111010101000111101011100001010000000000000000000000000000000000011101010100011110101110000101000111100001000111101011100001010001111001000111101011100001010010011110011000010100011110101110000111100101110000101000111101100001111001100110011001100110011010011110011010111000010100011110100111100110011001100110011001101001111001110000101000111101011100011110010100011110101110000101000111100001110000101000111101100001110101010001111010111000010101011110000100011110101110000101010111100101000111101011100001010101111010000111101011100001010011011110100101000111101011100001110111101001111010111000010100100101111010101000111101011100001011011110101011100001010001111011010111101010111000010100011110110101111010100011110101110000101001011110101010111000010100011110110111101011000010100011110101110101111010110101110000101000111111011110101101011100001010001111110111101010111000010100011110110101111010101110000101000111101101011110101100110011001100110011010111101011010111000010100011111101111010110000101000111101011101011110101011100001010001111011010111101010011001100110011001101101111010100011110101110000101001011110101000111101011100001010010111101010000101000111101011100101111010010111000010100011110111011110100101110000101000111101110111101001110000101000111101100101111010100110011001100110011011011110101011100001010001111011010111101010100011110101110000101101111010011001100110011001100111011110011100001010001111010111010111100000011110101110000101001001111001001100110011001100110100011110100100011110101110000101000111101011101011100001010001111001111011010111000010100011110110011110111110000101000111101011100111110001100011110101110000101001111100101111010111000010100100011111010000001010001111010111000111110100001110000101000111101001111101000100011110101110000110011111010000110011001100110011000111110011110000101000111101100001111100100000000000000000000000011110111010100011110101110000100111011110011001100110011001101101111011010000101000111101011101011111000000010100011110101110010111110000010111000010100011111101111100000001010001111010111001011110111101011100001010001111110111101111000010100011110101110101111011100111101011100001010011011110110111101011100001010010010111101101000111101011100001010101111011001110000101000111101101011110110010111000010100011110110111101100101110000101000111101101111011001100110011001100110101011110110010100011110101110000110111101100111000010100011110110101111011001110000101000111101101011110110011001100110011001101010111101100110011001100110011010101111011001010001111010111000011011110110010001111010111000010110111101100100011110101110000101101111011001011100001010001111011011110110010111000010100011110110111101100111101011100001010010101111011001100110011001100110101011110110010100011110101110000110111101100011110101110000101001101111011000111101011100001010011011110110001010001111010111000110111101100001010001111010111000101111011000101000111101011100011011110110000111101011100001010010111101100001111010111000010100101111011000010100011110101110001011110110000010100011110101110010111101011110101110000101001000101111010110101110000101000111111011110101110101110000101000111110111101100000000000000000000000101111011000011110101110000101001011110110001100110011001100110110111101100010100011110101110001101111011000000000000000000000001011110101110101110000101000111110111101100000101000111101011100101111011000010100011110101110001011110110010001111010111000010110111101100011110101110000101001101111011000011110101110000101001011110110000010100011110101110010111101100001010001111010111000101111011000011110101110000101001011110110001010001111010111000110111101100011001100110011001101101111011000101000111101011100011011110110000111101011100001010010111101100001111010111000010100101111011000001010001111010111001011110110000000000000000000000010111101100001010001111010111000101111011000101000111101011100011011110110000111101011100001010010111101100000101000111101011100101111010111010111000010100011111011110101100001010001111010111010111101010001111010111000010100101111010101011100001010001111011011110101000111101011100001010010111101001111010111000010100100101111010011001100110011001100111011110100101110000101000111101110111101001011100001010001111011101111010001010001111010111000011011110100001010001111010111000110111100110101110000101000111101101111001100110011001100110011011011110010101110000101000111101110111100101110000101000111101100101111001100001010001111010111001011110011100001010001111010111010111100110101110000101000111101101111001100001010001111010111001011110011000010100011110101110010111100101011100001010001111011101111001101011100001010001111011011110011110101110000101000111110111101000000000000000000000000101111001110000101000111101011101011110010011001100110011001101010111100110011001100110011001101101111001101011100001010001111011011110011101011100001010001111110111100111101011100001010001111101111010000010100011110101110001011110100000000000000000000000010111100110101110000101000111101101111001110101110000101000111111011110011100001010001111010111010111100110011001100110011001101101111001100001010001111010111001011110011010111000010100011110110111100111010111000010100011111101111001111010111000010100011111011110011110101110000101000111110111100111010111000010100011111101111001110101110000101000111111011110011000010100011110101110010111100101011100001010001111011101111001001100110011001100110101011110010011001100110011001101010111100100001010001111010111000101111001000010100011110101110001011110010001111010111000010100110111100100001010001111010111000101111001001100110011001100110101011110010101110000101000111101110111100101110000101000111101100101111001010111000010100011110111011110010011001100110011001101010111100100011110101110000101001101111001000111101011100001010011011110010001111010111000010100110111100100001010001111010111000101111000111010111000010100011111011110000100011110101110000101010111011111101011100001010001111101110110010001111010111000010100000000000000000000000000000000000111011011101011100001010001111001111000000111101011100001010010011110001001100110011001100110100111100011101011100001010001111001111001010001111010111000010100011110011001100110011001100110100111100111000010100011110101110001111001110000101000111101011100011110011000010100011110101110000111100110011001100110011001101001111001111010111000010100011110011110100011001100110011001101000111101010001111010111000010100001111010100011110101110000101000011110101011100001010001111011000111101010011001100110011001101001111010100001010001111010111000011110100001111010111000010100100111100111000010100011110101110001111001010001111010111000010100011110000001111010111000010100100000000000000000000000000000000101111000000111101011100001010011011110010001111010111000010100110111100101110000101000111101100101111001010111000010100011110111011110010111000010100011110110010111100101110000101000111101100101111001011100001010001111011001011110011101011100001010001111110111101000001010001111010111000101111010000111101011100001010011011110100010100011110101110000110111101001010001111010111000011101111010011001100110011001100111011110100010100011110101110000110111101000011110101110000101001101111010000000000000000000000001011110100000000000000000000000010111101000001010001111010111000101111010000010100011110101110001011110100001010001111010111000110111101000000000000000000000000101111010000000000000000000000001011110011010111000010100011110110111100110000101000111101011100101111001110000101000111101011101011110100001010001111010111000110111101000111101011100001010010101111010001010001111010111000011011110011100001010001111010111010111100000011110101110000101001001111000011100001010001111011000011110011110101110000101000111100111101010001111010111000010100001111011001100110011001100110100011110111100001010001111010111000111110001000111101011100001010001111100101011100001010001111010011111010000011110101110000101000111110100100000000000000000000001111101001011110101110000101000011111010010111000010100011110100111110100001011100001010001111001111100100101110000101000111110011110110111010111000010100100010111100010011001100110011001101101111011100010100011110101110001011111000001100110011001100110110111110000011110101110000101001101111100000000000000000000000001011110111100011110101110000101010111101110101110000101000111101101111011100101000111101011100011011110111000000000000000000000010111101101110000101000111101100101111011010101110000101000111111011110110011110101110000101001010111101100101110000101000111101101111011000111101011100001010011011110110010001111010111000010110111101100110011001100110011010101111011001111010111000010100101011110110100001010001111010111010111101101000010100011110101110101111011001100110011001100110101011110110001100110011001100110110111101100001010001111010111000101111011001011100001010001111011011110110011001100110011001101010111101100110011001100110011010101111011001110000101000111101101011110110100011110101110000101010111101100111000010100011110110101111011000011110101110000101001011110110000111101011100001010010111101100001010001111010111000101111011000010100011110101110001011110110000101000111101011100010111101100011001100110011001101101111011000110011001100110011011011110110000010100011110101110010111101011100001010001111010111101111010110000101000111101011101011110101010111000010100011110110111101001111010111000010100100101111010011110101110000101001001011110101010111000010100011110110111101010111000010100011110110101111010011110101110000101001001011110100011110101110000101001010111101001110000101000111101100101111011000000000000000000000001011110110100011110101110000101010111101101110101110000101001000101111011011000010100011110101111011110110100110011001100110011010111101100110011001100110011010101111011001111010111000010100101011110110010100011110101110000110111101100010100011110101110001101111011000010100011110101110001011110110001010001111010111000110111101100110011001100110011010101111011001110000101000111101101011110110100011110101110000101010111101100111101011100001010010101111011001010001111010111000011011110110000101000111101011100010111101011010111000010100011111101111010110011001100110011001101011110101101011100001010001111110111101011010111000010100011111101111010110101110000101000111111011110101101011100001010001111110111101010100011110101110000101101111010010111000010100011110111011110100010100011110101110000110111101000001010001111010111000101111010000010100011110101110001011110100010100011110101110000110111101000110011001100110011010101111010000111101011100001010011011110100000000000000000000000010111100111010111000010100011111101111001101011100001010001111011011110010111000010100011110110010111100110000101000111101011100101111001100110011001100110011011011110011100001010001111010111010111100111101011100001010001111101111010000111101011100001010011011110100010100011110101110000110111100111101011100001010001111101111001100001010001111010111001011110010001111010111000010100110111100100011110101110000101001101111001000111101011100001010011011110010111000010100011110110010111100111010111000010100011111101111010000101000111101011100011011110100011001100110011001101010111101000101000111101011100001101111010010001111010111000010101011110100001010001111010111000110111101000001010001111010111000101111001111010111000010100011111011110011010111000010100011110110111100101110000101000111101100101111001000010100011110101110001011110010100011110101110000101010111100100110011001100110011010101111000111010111000010100011111011110001100001010001111010111010111100011000010100011110101110101111000100110011001100110011011011110000001111010111000010100110111100010011001100110011001101101111000100110011001100110011011011110001001100110011001100110110111100000011110101110000101001101110111010001111010111000010101011101100100011110101110000101010111011101000111101011100001010101111000010001111010111000010101011110000111000010100011110110010111100011000010100011110101110101111000011100001010001111011001011110000100011110101110000101010111100000011110101110000101001101110111100110011001100110011011011101101110101110000101000111110111010101000111101011100001010101110110010001111010111000010100000000000000000000000000000000000111010101000111101011100001010001110110111010111000010100011110011110000001111010111000010100100111100011101011100001010001111001111001001100110011001100110100011110010000101000111101011100000111100011101011100001010001111001111001000111101011100001010010011110010101110000101000111101100111100111101011100001010001111001111010010111000010100011110110011110101010001111010111000010100111101011110101110000101001000001111011000010100011110101110000011110110001100110011001100110100111101100000101000111101011100001111010100011110101110000101000011110011010111000010100011110100111100001110000101000111101100001110111100110011001100110011011011101110100011110101110000101010111100100110011001100110011010101111001101011100001010001111011011110011000010100011110101110010111100111010111000010100011111101111010011001100110011001100111011110101011100001010001111011010111101011001100110011001100110101111010100011110101110000101001011110100111000010100011110110010111101001000111101011100001010101111010000010100011110101110001011110011001100110011001100110110111100110101110000101000111101101111010010001111010111000010101011110100111101011100001010010010111101001110000101000111101100101111010010100011110101110000111011110100100011110101110000101010111101000011110101110000101001101111010000000000000000000000001011110011010111000010100011110110111100100001010001111010111000101111000100110011001100110011011011101111001100110011001100110110111011011101011100001010001111101110110010001111010111000010101011101111001100110011001100110110111100001110000101000111101100101111000010001111010111000010101011101110100011110101110000101000111100100110011001100110011010001111010101110000101000111101100011110111000000000000000000000000111101111100110011001100110011001111100001000111101011100001010011111000110011001100110011001100111110010101011100001010001111001111101000000101000111101011100011111010010001010001111010111000111110100111010111000010100100001111101001101011100001010010000011111010010110011001100110011000111110011101011100001010001111001111100001010111000010100011110011110100100011110101110000101010111101100001010001111010111000101111100000011110101110000101001011111000011101011100001010010010111110000101000111101011100001101111011110101110000101000111111011110111000000000000000000000010111101110000000000000000000000101111011100110011001100110011011011110110110101110000101000111110111101100101000111101011100001101111011000111101011100001010011011110110010100011110101110000110111101100100011110101110000101101111010110101110000101000111111011110101100001010001111010111010111101011010111000010100011111101111011000010100011110101110001011110110010100011110101110000110111101101010001111010111000011101111011011100001010001111011001011110111000000000000000000000010111101110001111010111000010100101111011100110011001100110011011011110111001010001111010111000110111101101100110011001100110011101111011010001111010111000010101011110110100001010001111010111010111101100100011110101110000101101111010111000010100011110101111011110101001100110011001100110110111101010100011110101110000101101111010110000101000111101011101011110110000000000000000000000010111101100110011001100110011010101111011010101110000101000111111011110110100001010001111010111010111101100001111010111000010100101111010111010111000010100011111011110110010001111010111000010110111101101000111101011100001010101111011010001111010111000010101011110110011100001010001111011010111101101000111101011100001010101111011011110101110000101001001011110110101110000101000111101110111101100101000111101011100001101111011000011110101110000101001011110110010111000010100011110110111101101101011100001010001111101111011100011110101110000101001011110111000101000111101011100010111101101001100110011001100110101111011001000111101011100001011011110110010111000010100011110110111101101100110011001100110011101111011100110011001100110011011011110111001111010111000010100110111101110001111010111000010100101111011011101011100001010010001011110110111010111000010100100010111101101111010111000010100100101111011100001010001111010111001011110111000000000000000000000010111101101001100110011001100110101111011000011110101110000101001011110101001100110011001100110110111101001111010111000010100100101111010011100001010001111011001011110101100001010001111010111010111101100011110101110000101001101111011001110000101000111101101011110110010100011110101110000110111101011101011100001010001111101111010101011100001010001111011011110100111000010100011110110010111101001010001111010111000011101111010001010001111010111000011011110100010100011110101110000110111101000110011001100110011010101111010010001111010111000010101011110100010100011110101110000110111101000010100011110101110001101111010001010001111010111000011011110100010100011110101110000110111101000101000111101011100001101111010000101000111101011100011011110011110101110000101000111110111100110101110000101000111101101111001100110011001100110011011011110011100001010001111010111010111100111000010100011110101110101111001111010111000010100011111011110011101011100001010001111110111100111010111000010100011111101111001100110011001100110011011011110010101110000101000111101110111100100110011001100110011010101111001000111101011100001010011011110001110101110000101000111110111100011000010100011110101110101111000110000101000111101011101011110001110101110000101000111110111100101011100001010001111011101111001000010100011110101110001011101111001100110011001100110110111011110011001100110011001101101111000110000101000111101011101011110010011001100110011001101010111100101000111101011100001010101111001001100110011001100110101011110010011001100110011001101010111100110000101000111101011100101111001010111000010100011110111011110010011001100110011001101010111100101000111101011100001010101111001010111000010100011110111011110010000101000111101011100010111011111101011100001010001111101111000010001111010111000010101011110001001100110011001100110110111100100011110101110000101001101111001000010100011110101110001011110010011001100110011001101010111100001000111101011100001010001110111100110011001100110011010011110000111000010100011110110000111100010011001100110011001101000000000000000000000000000000001011101111001100110011001100110110111011110011001100110011001101101110110111010111000010100011110011101010100011110101110000101000111100001000111101011100001010001111001010111000010100011110110011110011001100110011001100110100111100111010111000010100011111001111010000010100011110101110000011110100011001100110011001101000111101000111101011100001010010001111010010100011110101110000110011110101001100110011001100110100111101010100011110101110000101001111010110000101000111101011100011110101101011100001010001111100111101011100001010001111010111001111010101110000101000111101100011110100111101011100001010010000111101001010001111010111000011001111010000101000111101011100010011110011010111000010100011110100111100011101011100001010001111001110111010001111010111000010101011101010100011110101110000101010111011110011001100110011001101101111001001100110011001100110101011110011010111000010100011110110111100111010111000010100011111101111001111010111000010100011111011110100000000000000000000000010111100111010111000010100011111101111001110000101000111101011101011110011100001010001111010111010111100110101110000101000111101101111001110000101000111101011101011110011110101110000101000111110111100111000010100011110101110101111001110000101000111101011101011110010111000010100011110110010111100101011100001010001111011101111001010001111010111000010101011110011000010100011110101110010111100101011100001010001111011101111001000010100011110101110001011110000100011110101110000101010111011101000111101011100001010101110101010001111010111000010100011101100100011110101110000101010111011101000111101011100001010101110111010001111010111000010101011101010100011110101110000101000111100001110000101000111101100001111001111010111000010100011110011110101010001111010111000010100111101100011110101110000101001001111011011100001010001111011000011110111111010111000010100100000111110000111010111000010100100001111100101010111000010100011110011111010000100011110101110000100111110100101100110011001100110001111101001110000101000111101100011111010011101011100001010010000111110100111100001010001111011001111101001010001111010111000010011111001111100001010001111011000111110001001010001111010111000001111010100001010001111010111001011110101110101110000101000111110111110000001111010111000010100101111100001110000101000111101101011111000010101110000101000111110111110000000000000000000000000101111011110000101000111101011101011110111000101000111101011100010111101101100001010001111010111101111011010000101000111101011101011110110001111010111000010100110111101100000000000000000000000101111010111010111000010100011111011110101110101110000101000111110111101011101011100001010001111101111010110101110000101000111111011110101100110011001100110011010111101011010111000010100011111101111010111000010100011110101111011110101100001010001111010111010111101011101011100001010001111101111010111000010100011110101111011110101101011100001010001111110111101011101011100001010001111101111010110011001100110011001101011110101010111000010100011110110111101001111010111000010100100101111010101000111101011100001011011110101100001010001111010111010111101011100001010001111010111101111011000000000000000000000001011110110000000000000000000000010111101100000000000000000000000101111010111101011100001010010001011110101110101110000101000111110111101011001100110011001100110101111010111000010100011110101111011110101110101110000101000111110111101100000000000000000000000101111011000000000000000000000001011110101111010111000010100100010111101011100001010001111010111101111010110101110000101000111111011110101101011100001010001111110111101011100001010001111010111101111011000000000000000000000001011110110000101000111101011100010111101100010100011110101110001101111011000110011001100110011011011110110010001111010111000010110111101100100011110101110000101101111011001010001111010111000011011110110010100011110101110000110111101100101000111101011100001101111011001100110011001100110101011110110011100001010001111011010111101101001100110011001100110101111011010100011110101110000111011110110100110011001100110011010111101101010111000010100011111101111011010100011110101110000111011110110100011110101110000101010111101100101110000101000111101101111011001010001111010111000011011110110001111010111000010100110111101100001010001111010111000101111010111101011100001010010001011110101110000101000111101011110111101011101011100001010001111101111010111101011100001010010001011110101101011100001010001111110111101010100011110101110000101101111010100110011001100110011011011110100111000010100011110110010111101000111101011100001010010101111010000010100011110101110001011110100000000000000000000000010111100111101011100001010001111101111001100110011001100110011011011110011100001010001111010111010111100111010111000010100011111101111010000000000000000000000001011110100000000000000000000000010111101000000000000000000000000101111010000000000000000000000001011110011101011100001010001111110111101000000000000000000000000101111010000010100011110101110001011110100010100011110101110000110111101000110011001100110011010101111010001100110011001100110101011110100010100011110101110000110111101000000000000000000000000101111001110101110000101000111111011110011001100110011001100110110111100110101110000101000111101101111001110000101000111101011101011110011100001010001111010111010111100110000101000111101011100101111001001100110011001100110101011110010000101000111101011100010111100011101011100001010001111101111001000111101011100001010011011110010000101000111101011100010111100101000111101011100001010101111001011100001010001111011001011110010111000010100011110110010111100100110011001100110011010101111001000010100011110101110001011110010000101000111101011100010111100100001010001111010111000101111001000010100011110101110001011110010000101000111101011100010111100101000111101011100001010101111001001100110011001100110101011110010100011110101110000101010111100101000111101011100001010101111001000010100011110101110001011110001001100110011001100110110111100001110000101000111101100101111000100110011001100110011011011110001100001010001111010111010111100010011001100110011001101101111000010001111010111000010101011110000111000010100011110110010111011101000111101011100001010000000000000000000000000000000000000000000000000000000000000000000000000000000000000000000000000001110110010001111010111000010100011110001001100110011001100110100111100001000111101011100001010001111000110000101000111101011100011110010000101000111101011100000111100101000111101011100001010001111001010111000010100011110110011110010011001100110011001101000111100101011100001010001111011001111001001100110011001100110100011110011010111000010100011110100111101000001010001111010111000001111010010001111010111000010100011110100101110000101000111101100111101001100110011001100110011001111010010111000010100011110110011110100011110101110000101001000111101000001010001111010111000001111001010001111010111000010100011110000001111010111000010100110111011101000111101011100001010101111001000111101011100001010011011110011101011100001010001111110111101000010100011110101110001101111010000010100011110101110001011110100011110101110000101001010111101001100110011001100110011101111010011100001010001111011001011110100111000010100011110110010111101010000101000111101011100101111010011110101110000101001001011110100111000010100011110110010111101010011001100110011001101101111010100110011001100110011011011110101010001111010111000010110111101010100011110101110000101101111010101110000101000111101101011110101100001010001111010111010111101011000010100011110101110101111010101110000101000111101101011110101000111101011100001010010111101010001111010111000010100101111010011110101110000101001001011110100110011001100110011001110111101001010001111010111000011101111010011001100110011001100111011110101000010100011110101110010111101010011001100110011001101101111010101011100001010001111011011110100111000010100011110110010111101000000000000000000000000101111000010001111010111000010100011110010000101000111101011100000111101001000111101011100001010001111010110101110000101000111110011110110011110101110000101001000111101110101110000101000111101001111100001011100001010001111010011111001000101000111101011100000111110011010111000010100011111001111100111110101110000101001000011111001111110101110000101001000111110100000000000000000000000001111100110011110101110000101000011111000110011001100110011001100111101101011100001010001111011101111000100110011001100110011011011110111001010001111010111000110111110000111010111000010100100101111100010101110000101000111111011111000100000000000000000000010111110000011110101110000101001101111100000000000000000000000001011110111110000101000111101011110111101111010001111010111000011101111011101110000101000111101101011110111000111101011100001010010111101110001111010111000010100101111011100101000111101011100011011110111001100110011001100110110111101110010100011110101110001101111011100010100011110101110001011110111000010100011110101110010111101101100110011001100110011101111011011100001010001111011001011110110110101110000101000111110111101101110000101000111101100101111011011001100110011001100111011110110110000101000111101011110111101101100001010001111010111101111011011100001010001111011001011110111000010100011110101110010111101110000101000111101011100101111011100010100011110101110001011110111000111101011100001010010111101110000101000111101011100101111011011110101110000101001001011110110111000010100011110110010111101101100001010001111010111101111011010101110000101000111111011110110110000101000111101011110111101101100001010001111010111101111011011100001010001111011001011110111000010100011110101110010111101110001111010111000010100101111011100010100011110101110001011110110110101110000101000111110111101101110101110000101001000101111011011010111000010100011111011110110110000101000111101011110111101101011100001010001111011101111011011000010100011110101111011110110111010111000010100100010111101110000000000000000000000101111011100110011001100110011011011110111010001111010111000010110111101110100011110101110000101101111011100111101011100001010011011110111001010001111010111000110111101110001111010111000010100101111011100011110101110000101001011110111001100110011001100110110111101110011001100110011001101101111011101000111101011100001011011110111010001111010111000010110111101110100011110101110000101101111011101010001111010111000011011110111010111000010100011110110111101110100011110101110000101101111011100110011001100110011011011110111000111101011100001010010111101101111010111000010100100101111011011010111000010100011111011110110110011001100110011001110111101101101011100001010001111101111011011001100110011001100111011110110101110000101000111101110111101101010001111010111000011101111011001111010111000010100101011110110010100011110101110000110111101100010100011110101110001101111011000010100011110101110001011110110000010100011110101110010111101100001010001111010111000101111011000010100011110101110001011110110000101000111101011100010111101100001010001111010111000101111011000010100011110101110001011110110000010100011110101110010111101100000000000000000000000101111010111101011100001010010001011110101111010111000010100100010111101100001010001111010111000101111011000001010001111010111001011110110000000000000000000000010111101011100001010001111010111101111010111101011100001010010001011110110000000000000000000000010111101011101011100001010001111101111011000000000000000000000001011110101101011100001010001111110111101011001100110011001100110101111010101011100001010001111011011110101011100001010001111011010111101010111000010100011110110101111010100110011001100110011011011110101010111000010100011110110111101010100011110101110000101101111010100110011001100110011011011110101010111000010100011110110111101010100011110101110000101101111010100001010001111010111001011110100111101011100001010010010111101010000101000111101011100101111010100011110101110000101001011110101010111000010100011110110111101010101110000101000111101101111010100110011001100110011011011110101001100110011001100110110111101010100011110101110000101101111010101110000101000111101101011110101010001111010111000010110111101011000010100011110101110101111010101110000101000111101101011110101011100001010001111011010111101011000010100011110101110101111010111101011100001010010001011110110001010001111010111000110111101100001111010111000010100101111011000010100011110101110001011110101110000101000111101011110111101011000010100011110101110101111010100110011001100110011011011110101000010100011110101110010111101001011100001010001111011101111010010111000010100011110111011110100101110000101000111101110111101001110000101000111101100101111010011110101110000101001001011110100101110000101000111101110111101000011110101110000101001101111001110000101000111101011101011110010101110000101000111101110111100101000111101011100001010101111001011100001010001111011001011110010111000010100011110110010111100100011110101110000101001101111000011100001010001111011001011101111001100110011001100110110111011101000111101011100001010101110111010001111010111000010101011101111110101110000101000111110111011110011001100110011001101101111000000111101011100001010011011110001110101110000101000111110111100110000101000111101011100101111001111010111000010100011111011110100011110101110000101001010111101010101110000101000111101101111010111101011100001010010001011110110001010001111010111000110111101100011001100110011001101101111011001000111101011100001011011110110011001100110011001101010111101101010001111010111000011101111011010100011110101110000111011110110011100001010001111011010111101100100011110101110000101101111011000110011001100110011011011110110010001111010111000010110111101100100011110101110000101101111011001000111101011100001011011110110000111101011100001010010111101011101011100001010001111101111011000110011001100110011011011110110010100011110101110000110111101100100011110101110000101101111011000101000111101011100011011110110000000000000000000000010111101011100001010001111010111101111010100011110101110000101001011110101001100110011001100110110111101010011001100110011001101101111010100110011001100110011011011110100111000010100011110110010111101000110011001100110011010101111001100110011001100110011011011110000100011110101110000101000111010101000111101011100001010001111000110000101000111101011100011110011010111000010100011110100111101010011001100110011001101001111011010001111010111000010100011110111110101110000101000111100111110001001100110011001100110001111100101110101110000101001000011111001111101011100001010010000111110100000111101011100001010001111101000010100011110101110000011111001111110101110000101001000111110010111000010100011110110001111100000111000010100011110110011110100111000010100011110110010111101010100011110101110000101101111100000010100011110101110001011111000101010001111010111000110111110001010111000010100011111101111100001100110011001100110101011111000000000000000000000000010111101111001100110011001100110101111011101010001111010111000011011110111010001111010111000010110111101110011001100110011001101101111011100001010001111010111001011110110110000101000111101011110111101101001100110011001100110101111011010100011110101110000111011110110101110000101000111101110111101101011100001010001111011101111011010111000010100011110111011110110101011100001010001111110111101101010001111010111000011101111011010001111010111000010101011110110100001010001111010111010111101101000111101011100001010101111011010101110000101000111111011110110110101110000101000111110111101101100001010001111010111101111011010101110000101000111111011110110110101110000101000111110111101101110101110000101001000101111011011101011100001010010001011110110101110000101000111101110111101101110000101000111101100101111011011100001010001111011001011110110110101110000101000111110111101101110101110000101001000101111011100001010001111010111001011110111000010100011110101110010111101101111010111000010100100101111011011100001010001111011001011110110110101110000101000111110111101110000000000000000000000101111011011110101110000101001001011110110110101110000101000111110111101101011100001010001111011101111011010111000010100011110111011110110111000010100011110110010111101101111010111000010100100101111011100111101011100001010011011110111011001100110011001101010111101110100011110101110000101101111011100010100011110101110001011110111000000000000000000000010111101101111010111000010100100101111011011001100110011001100111011110111000010100011110101110010111101110001111010111000010100101111011100110011001100110011011011110111010001111010111000010110111101110101000111101011100001101111011101011100001010001111011011110111000111101011100001010010111101110001010001111010111000101111011011110101110000101001001011110110111010111000010100100010111101101100110011001100110011101111011010011001100110011001101011110110100011110101110000101010111101101010001111010111000011101111011001110000101000111101101011110110001100110011001100110110111101100001111010111000010100101111011000010100011110101110001011110101111010111000010100100010111101010101110000101000111101101111010011001100110011001100111011110100010100011110101110000110111100111000010100011110101110101111001100001010001111010111001011110011010111000010100011110110111101000011110101110000101001101111010001111010111000010100101011110100100011110101110000101010111101000011110101110000101001101111010000101000111101011100011011110100001111010111000010100110111101000011110101110000101001101111010000000000000000000000001011110011110101110000101000111110111101000001010001111010111000101111010001100110011001100110101011110100111000010100011110110010111101010000101000111101011100101111010011110101110000101001001011110100101000111101011100001110111101000101000111101011100001101111001110101110000101000111111011110011101011100001010001111110111100111000010100011110101110101111001101011100001010001111011011110011101011100001010001111110111100111010111000010100011111101111001110000101000111101011101011110011001100110011001100110110111100110000101000111101011100101111001010111000010100011110111011110010000101000111101011100010111100100011110101110000101001101111000110000101000111101011101011110010000101000111101011100010111100101011100001010001111011101111001011100001010001111011001011110010001111010111000010100110111011110011001100110011001101101110110010001111010111000010100011101010100011110101110000101000000000000000000000000000000000101110111010001111010111000010101011110001110101110000101000111110111100110000101000111101011100101111001100001010001111010111001011110010000101000111101011100010111100001110000101000111101100101111000010001111010111000010101011101111110101110000101000111110111011110011001100110011001101101110111010001111010111000010100011101010100011110101110000101000111100010011001100110011001101001111001010111000010100011110110011110000111000010100011110110000111011001000111101011100001010101110101010001111010111000010100011101010100011110101110000101000111011110011001100110011001101001111000100110011001100110011010011110010100011110101110000101000111100011000010100011110101110001111000010001111010111000010100011101110100011110101110000101000111100011000010100011110101110001111001100001010001111010111000011110100000101000111101011100000111100111101011100001010001111001111001101011100001010001111010011110011010111000010100011110100111100111000010100011110101110001111001110101110000101000111110011110010101110000101000111101100111100011000010100011110101110001110110010001111010111000010101011101111001100110011001100110110111100100011110101110000101001101111001101011100001010001111011011110100000101000111101011100010111101000101000111101011100001101111010001100110011001100110101011110100100011110101110000101010111101001011100001010001111011101111010011110101110000101001001011110101000010100011110101110010111101001100110011001100110011101111010001100110011001100110101011110100000101000111101011100010111101000001010001111010111000101111010000010100011110101110001011110100010100011110101110000110111101000111101011100001010010101111010010001111010111000010101011110100101110000101000111101110111101001010001111010111000011101111010001111010111000010100101011110100011001100110011001101010111101000111101011100001010010101111010001010001111010111000011011110100001010001111010111000110111100111010111000010100011111101111001110000101000111101011101011110100010100011110101110000110111101001010001111010111000011101111010001010001111010111000011011110001110101110000101000111100111010101000111101011100001010001111001101011100001010001111010011110100111000010100011110110000111101100011110101110000101001001111011100001010001111010111000011111000000111101011100001010000111110001111000010100011110110001111100110001010001111010111000011111010000101000111101011100000111110100011010111000010100100001111101001010001111010111000010011111010010000101000111101011100111110100001100110011001100110001111100101100110011001100110100011111000000001010001111010111000111100111101011100001010001111101111010110011001100110011001101011110111100011110101110000101010111110000000101000111101011100101111100000001010001111010111001011110111111101011100001010010010111101111100110011001100110011101111011100111101011100001010011011110110110000101000111101011110111101100111101011100001010010101111011001011100001010001111011011110110100001010001111010111010111101101001100110011001100110101111011010001111010111000010101011110110010111000010100011110110111101100011110101110000101001101111011000110011001100110011011011110110011001100110011001101010111101101000010100011110101110101111011010001111010111000010101011110110100011110101110000101010111101101001100110011001100110101111011010100011110101110000111011110110101000111101011100001110111101101100001010001111010111101111011010111000010100011110111011110110100011110101110000101010111101100111000010100011110110101111011010000101000111101011101011110110100011110101110000101010111101101000111101011100001010101111011001111010111000010100101011110110010100011110101110000110111101100010100011110101110001101111011000110011001100110011011011110110001111010111000010100110111101100111000010100011110110101111011010101110000101000111111011110110101011100001010001111110111101101000010100011110101110101111011010000101000111101011101011110110100110011001100110011010111101101000010100011110101110101111011001100110011001100110101011110110101110000101000111101110111101101101011100001010001111101111011011000010100011110101111011110110101011100001010001111110111101101010001111010111000011101111011001111010111000010100101011110110011001100110011001101010111101100011110101110000101001101111011000010100011110101110001011110110010100011110101110000110111101101010111000010100011111101111011100000000000000000000001011110111000010100011110101110010111101110000000000000000000000101111011010101110000101000111111011110110010001111010111000010110111101100101000111101011100001101111011010000101000111101011101011110110101011100001010001111110111101101001100110011001100110101111011010011001100110011001101011110110100001010001111010111010111101100001111010111000010100101111011000010100011110101110001011110110000111101011100001010010111101100101110000101000111101101111011010001111010111000010101011110110100011110101110000101010111101100110011001100110011010101111011000101000111101011100011011110110001100110011001100110110111101100000000000000000000000101111010110000101000111101011101011110101001100110011001100110110111101010000101000111101011100101111010100001010001111010111001011110101011100001010001111011010111101011101011100001010001111101111010111010111000010100011111011110101100110011001100110011010111101010011001100110011001101101111010101000111101011100001011011110101100001010001111010111010111101011110101110000101001000101111011000010100011110101110001011110110000010100011110101110010111101100001010001111010111000101111011000010100011110101110001011110101111010111000010100100010111101011010111000010100011111101111010101000111101011100001011011110101001100110011001100110110111101011000010100011110101110101111010111101011100001010010001011110101111010111000010100100010111101011001100110011001100110101111010101000111101011100001011011110101000111101011100001010010111101010000101000111101011100101111010011110101110000101001001011110101000111101011100001010010111101011000010100011110101110101111010110011001100110011001101011110101100110011001100110011010111101010001111010111000010100101111010011001100110011001100111011110100110011001100110011001110111101010001111010111000010100101111010110000101000111101011101011110101110000101000111101011110111101010101110000101000111101101111010100011110101110000101001011110100101110000101000111101110111101001011100001010001111011101111010010111000010100011110111011110100111000010100011110110010111101001110000101000111101100101111010011110101110000101001001011110101001100110011001100110110111101010011001100110011001101101111010100001010001111010111001011110100110011001100110011001110111101001110000101000111101100101111010001010001111010111000011011110011001100110011001100110110111100101011100001010001111011101111010000111101011100001010011011110101000010100011110101110010111101010100011110101110000101101111010011100001010001111011001011110100010100011110101110000110111100111101011100001010001111101111001100110011001100110011011011110010111000010100011110110010111100101110000101000111101100101111001010001111010111000010101011110000111000010100011110110000000000000000000000000000000000101110110111010111000010100011111011101100100011110101110000101000000000000000000000000000000000001110111111010111000010100011110011101111001100110011001100110100000000000000000000000000000000000000000000000000000000000000001011101111110101110000101000111110111100001000111101011100001010101111001010001111010111000010101011110100001111010111000010100110111101010111000010100011110110101111011000101000111101011100011011110110011001100110011001101010111101100111101011100001010010101111011001100110011001100110101011110110011110101110000101001010111101100111000010100011110110101111011001010001111010111000011011110110001100110011001100110110111101100001111010111000010100101111011000110011001100110011011011110110000111101011100001010010111101100100011110101110000101101111011000110011001100110011011011110110000000000000000000000010111101011101011100001010001111101111011000010100011110101110001011110110010111000010100011110110111101100111101011100001010010101111011001110000101000111101101011110110010001111010111000010110111101100001111010111000010100101111011000001010001111010111001011110101111010111000010100100010111101011100001010001111010111101111010111101011100001010010001011110101111010111000010100100010111101011010111000010100011111101111010101011100001010001111011011110100101110000101000111101110111100111010111000010100011111101111000100110011001100110011010011101100100011110101110000101000111100100011110101110000101001001111010000111101011100001010010011110110000101000111101011100000111101111000111101011100001010001111100010001010001111010111000011111001001100110011001100110100111110011000010100011110101110001111100110101110000101000111110011111001011001100110011001101000111110001100011110101110000101001111011011101011100001010010001011110000111000010100011110110010111101111010001111010111000011101111100011000111101011100001011011111001000010100011110101110010111110001111000010100011110110101111100010100011110101110000111011111000010011001100110011001110111110000001010001111010111000101111011110111000010100011110111011110111100001010001111010111010111101110101000111101011100001101111011101010001111010111000011011110111001100110011001100110110111101110000101000111101011100101111011011100001010001111011001011110110111101011100001010010010111101110011001100110011001101101111011101011100001010001111011011110111001100110011001100110110111101110000000000000000000000101111011100000000000000000000001011110110111000010100011110110010111101101011100001010001111011101111011010000101000111101011101011110110100011110101110000101010111101101010111000010100011111101111011011000010100011110101111011110111000000000000000000000010111101101111010111000010100100101111011011001100110011001100111011110110101000111101011100001110111101101100110011001100110011101111011100010100011110101110001011110111000101000111101011100010111101110010100011110101110001101111011100101000111101011100011011110111001111010111000010100110111101110100011110101110000101101111011101100110011001100110101011110111011100001010001111011010111101110101000111101011100001101111011101011100001010001111011011110111010001111010111000010110111101110101000111101011100001101111011101000111101011100001011011110111011100001010001111011010111101111101011100001010001111101111011111101011100001010010001011110111110101110000101000111110111101111010001111010111000011101111011110100011110101110000111011110111101000111101011100001110111101111010001111010111000011101111011110111000010100011110111011110111110011001100110011001110111101111110000101000111101100101111100000010100011110101110001011111000001000111101011100001110111110000010111000010100011111101111100000110011001100110011011011111000001010001111010111000110111110000001100110011001100110101111100000001010001111010111001011110111111101011100001010010010111101111100110011001100110011101111011110111000010100011110111011110111101011100001010001111110111101111010001111010111000011101111011110000101000111101011101011110111011100001010001111011010111101110111000010100011110110101111011100101000111101011100011011110111000000000000000000000010111101101100110011001100110011101111011010001111010111000010101011110110011001100110011001101010111101100101000111101011100001101111011001000111101011100001011011110110001111010111000010100110111101100111000010100011110110101111011001111010111000010100101011110110010100011110101110000110111101100011110101110000101001101111011000110011001100110011011011110110001111010111000010100110111101100001010001111010111000101111011000011110101110000101001011110110000101000111101011100010111101100011001100110011001101101111011000101000111101011100011011110110001010001111010111000110111101100011110101110000101001101111011001000111101011100001011011110110010100011110101110000110111101100101110000101000111101101111011001111010111000010100101011110110011001100110011001101010111101100011001100110011001101101111011000010100011110101110001011110110000010100011110101110010111101100000101000111101011100101111010111010111000010100011111011110110000010100011110101110010111101100000000000000000000000101111010111000010100011110101111011110101100110011001100110011010111101011001100110011001100110101111010110000101000111101011101011110101010111000010100011110110111101010101110000101000111101101111010101000111101011100001011011110101010111000010100011110110111101010000101000111101011100101111010100001010001111010111001011110100111101011100001010010010111101001111010111000010100100101111010010100011110101110000111011110100010100011110101110000110111101000101000111101011100001101111010001010001111010111000011011110100011001100110011001101010111101000011110101110000101001101111010000010100011110101110001011110100000000000000000000000010111100111000010100011110101110101111001111010111000010100011111011110100000000000000000000000010111101000101000111101011100001101111010000010100011110101110001011110011001100110011001100110110111100100001010001111010111000101111001000111101011100001010011011110001110101110000101000111110111100011101011100001010001111101111000010001111010111000010101011101111001100110011001100110100111010101000111101011100001010001110111010001111010111000010100011101111110101110000101000111100111100011101011100001010001111001111000111010111000010100011110011110010000101000111101011100000111100100110011001100110011010001111001011100001010001111011000011110011001100110011001100110100111100111101011100001010001111001111010001111010111000010100100011110100011001100110011001101000111101001010001111010111000011001111010001111010111000010100100011110100001010001111010111000100111100110101110000101000111101001111001010111000010100011110110011110010100011110101110000101000111011011101011100001010001111101110111010001111010111000010101011110001110101110000101000111110111100110000101000111101011100101111001110000101000111101011101011110011010111000010100011110110111100101011100001010001111011101111001101011100001010001111011011110011000010100011110101110010111100111010111000010100011111101111010000010100011110101110001011110100000101000111101011100010111100111101011100001010001111101111001111010111000010100011111011110011110101110000101000111110111100111101011100001010001111101111001111010111000010100011111011110011110101110000101000111110111100111010111000010100011111101111001101011100001010001111011011110010111000010100011110110010111100100011110101110000101001101111000100110011001100110011011011110001110101110000101000111110111100100011110101110000101001101111001011100001010001111011001011110011001100110011001100110110111100110000101000111101011100101111001001100110011001100110101011101110100011110101110000101000111011111101011100001010001111001111001100001010001111010111000011110100100011110101110000101000111101011100001010001111010111001111011001111010111000010100100011110111010111000010100011110100111110000011100001010001111011001111100011110000101000111101100011111001101011100001010001111100111110100010011001100110011010001111101001000000000000000000000011111010001111010111000010100100111110100011000010100011110110001111100111101011100001010010000011111001000110011001100110011000111101110101110000101000111101001111001001100110011001100110101011110101100110011001100110011010111101110011110101110000101001101111011110000101000111101011101011110111000101000111101011100010111101100111101011100001010010101111011000111101011100001010011011110110000111101011100001010010111101011100001010001111010111101111010100001010001111010111001011110100110011001100110011001110111101001100110011001100110011101111010011001100110011001100111011110101000111101011100001010010111101010001111010111000010100101111010011110101110000101001001011110100101110000101000111101110111101000101000111101011100001101111010000101000111101011100011011110100010100011110101110000110111101001000111101011100001010101111010010001111010111000010101011110100100011110101110000101010111101001000111101011100001010101111010001111010111000010100101011110100000101000111101011100010111100111000010100011110101110101111001110000101000111101011101011110011001100110011001100110110111100111101011100001010001111101111010000000000000000000000001011110100000000000000000000000010111100110101110000101000111101101111001011100001010001111011001011110011000010100011110101110010111100101110000101000111101100101111001101011100001010001111011011110010111000010100011110110010111100101110000101000111101100101111001101011100001010001111011011110011110101110000101000111110111100111101011100001010001111101111001101011100001010001111011011110011101011100001010001111110111100110000101000111101011100101111001001100110011001100110101011110001100001010001111010111010111100100011110101110000101001101111001101011100001010001111011011110100000101000111101011100010111101000010100011110101110001101111010000010100011110101110001011110100001010001111010111000110111101000011110101110000101001101111010000010100011110101110001011110100001010001111010111000110111101000001010001111010111000101111001111010111000010100011111011110011110101110000101000111110111101000001010001111010111000101111010000000000000000000000001011110011010111000010100011110110111100101000111101011100001010101111001001100110011001100110101011110010000101000111101011100010111100100011110101110000101001101111001000010100011110101110001011110001110101110000101000111110111100011101011100001010001111101111001001100110011001100110101011110011100001010001111010111010111100110000101000111101011100101111000100110011001100110011011011101110100011110101110000101010111010101000111101011100001010000000000000000000000000000000000000000000000000000000000000000000111011001000111101011100001010001110111111010111000010100011110011101111110101110000101000111100111011111101011100001010001111001110101010001111010111000010100000000000000000000000000000000000000000000000000000000000000000001110111100110011001100110011010011110000111000010100011110110000111100011000010100011110101110001111001000010100011110101110000011110000111000010100011110110000111100001110000101000111101100001111000011100001010001111011000011110000001111010111000010100100111011101000111101011100001010001110111111010111000010100011110011110001110101110000101000111100111100010011001100110011001101001111000111010111000010100011110011110001001100110011001100110100111100011000010100011110101110001111000111010111000010100011110011110010001111010111000010100100111100011101011100001010001111001111001000010100011110101110000011110010001111010111000010100100111100011101011100001010001111001111001000111101011100001010010011110010111000010100011110110000111101000011110101110000101001001111010100110011001100110011010011110110001111010111000010100100111101110000000000000000000000001111011110011001100110011001100011111000001000111101011100001100111110000011110101110000101001001111100000101110000101000111110011110111110011001100110011001100111101110100011110101110000101001111011001111010111000010100100011110100001111010111000010100110111100101011100001010001111011101111011100101000111101011100011011111000101111010111000010100110111110011100011110101110000101101111101000111010111000010100101011111010010011110101110000101010111110100101000111101011100001101111101001000101000111101011101011111010001110000101000111101110111110100000101000111101011100101111100110010100011110101110001011111001010001111010111000010110111110001111101011100001010010101111100010110011001100110011011011111000010001111010111000010110111101111111010111000010100100101111011100110011001100110011011011110110011100001010001111011010111101011000010100011110101110101111010000000000000000000000001011110000001111010111000010100100111100010011001100110011001101001111010000000000000000000000000011110100101000111101011100001100111101010001111010111000010100001111010100001010001111010111000011110101000111101011100001010000111101011000010100011110101110001111010111010111000010100011110011110110000010100011110101110000111101011101011100001010001111001111010110000101000111101011100011110100111000010100011110110000111101000110011001100110011010001111010000111101011100001010010011110100000101000111101011100000111100111010111000010100011111001111001000111101011100001010010011110010001111010111000010100100111100011101011100001010001111001111001000111101011100001010010011110010111000010100011110110000111100110101110000101000111101001111010000101000111101011100010011110100001010001111010111000100111101000111101011100001010010001111010010100011110101110000110011110100101000111101011100001100111101000111101011100001010010001111010010111000010100011110110011110101010001111010111000010100111101010001111010111000010100001111010101110000101000111101100011110101100110011001100110011000111101011010111000010100011111001111010110101110000101000111110011110101111010111000010100100000111101011110101110000101001000001111011000110011001100110011010011110110011001100110011001101000111101100101110000101000111101001111011001010001111010111000010011110110001100110011001100110100111101100101110000101000111101001111011001111010111000010100100011110110110000101000111101011100111101110000101000111101011100001111011100001010001111010111000011110111001010001111010111000100111101110011001100110011001101001111011101000111101011100001010011110111001010001111010111000100111101110100011110101110000101001111011101010001111010111000010011110111001010001111010111000100111101110011001100110011001101001111011101000111101011100001010011110111010111000010100011110100111101110010100011110101110001001111011100010100011110101110000011110111000000000000000000000000111101110011001100110011001101001111011100101000111101011100010011110111000010100011110101110000111101101110101110000101001000001111011011000010100011110101110011110110101000111101011100001100111101100110011001100110011010001111011000110011001100110011010011110110000000000000000000000000111101011100001010001111010111001111010110000101000111101011100011110101010111000010100011110100111101001100110011001100110011001111010000111101011100001010010011110100010100011110101110000100111101000010100011110101110001001111010000111101011100001010010011110100000000000000000000000000111101000001010001111010111000001111001111010111000010100011110011110011101011100001010001111100111100111010111000010100011111001111001001100110011001100110100011110010000101000111101011100000111100011000010100011110101110001111000011100001010001111011000011101111110101110000101000111100111011101000111101011100001010001111000000111101011100001010010011110000100011110101110000101000111100001110000101000111101100001110111100110011001100110011010000000000000000000000000000000010111100001000111101011100001010101111000111010111000010100011111011110010101110000101000111101110111100100001010001111010111000101111000000111101011100001010011011110001001100110011001100110110111100100001010001111010111000101111001010001111010111000010101011110011000010100011110101110010111100110000101000111101011100101111001011100001010001111011001011110010001111010111000010100110111100110011001100110011001101101111001100001010001111010111001011110011010111000010100011110110111100110101110000101000111101101111001100110011001100110011011011110011000010100011110101110010111100101000111101011100001010101111001011100001010001111011001011110010100011110101110000101010111100101011100001010001111011101111001010111000010100011110111011110010111000010100011110110010111100110011001100110011001101101111001101011100001010001111011011110011001100110011001100110110111100110011001100110011001101101111001100110011001100110011011011110010101110000101000111101110111100101011100001010001111011101111001100001010001111010111001011110011101011100001010001111110111100110101110000101000111101101111001000111101011100001010011011110001100001010001111010111010111100010011001100110011001101101111001000010100011110101110001011110011001100110011001100110110111101000000000000000000000000101111001111010111000010100011111011110011100001010001111010111010111100110101110000101000111101101111001110000101000111101011101011110011110101110000101000111110111101000001010001111010111000101111010000101000111101011100011011110100000000000000000000000010111100111000010100011110101110101111001110000101000111101011101011110011101011100001010001111110111101000001010001111010111000101111010000111101011100001010011011110100001111010111000010100110111101000001010001111010111000101111001110101110000101000111111011110011101011100001010001111110111101000000000000000000000000101111001110101110000101000111111011110011101011100001010001111110111101000000000000000000000000101111010000111101011100001010011011110100001010001111010111000110111100110011001100110011001101101111001111010111000010100011111011110100001010001111010111000110111101000001010001111010111000101111001101011100001010001111011011110011000010100011110101110010111100101110000101000111101100101111001010111000010100011110111011110011100001010001111010111010111101000000000000000000000000101111010000010100011110101110001011110011110101110000101000111110111100111010111000010100011111101111001100110011001100110011011011110011010111000010100011110110111100101110000101000111101100101111001000010100011110101110001011110010001111010111000010100110111100101110000101000111101100101111001011100001010001111011001011110010111000010100011110110010111100110000101000111101011100101111001011100001010001111011001011110001001100110011001100110110111100011101011100001010001111101111001000010100011110101110001011110010111000010100011110110010111100101110000101000111101100101111001010111000010100011110111011110010011001100110011001101010111100001000111101011100001010101110111010001111010111000010101011101100100011110101110000101010111010101000111101011100001010001110110010001111010111000010100011101110100011110101110000101000111100001000111101011100001010001111000110000101000111101011100011110010011001100110011001101000111100110011001100110011001101001111001111010111000010100011110011110100011001100110011001101000111101010001111010111000010100001111010101110000101000111101100011110100111101011100001010010000111101000110011001100110011010001111010001100110011001100110100011110100101000111101011100001100111101001000111101011100001010001111010001010001111010111000010011110100100011110101110000101000111101010011001100110011001101001111010110101110000101000111110011110100111101011100001010010000111100110000101000111101011100000000000000000000000000000000001011110001001100110011001100110110111100100011110101110000101001101111000111010111000010100011111011110000001111010111000010100110111100000011110101110000101001101110111111010111000010100011111011110010000101000111101011100010111100110011001100110011001101101111001101011100001010001111011011110010001111010111000010100110111010101000111101011100001010001111001110000101000111101011100011110101100110011001100110011000111101100110011001100110011010001111011101011100001010001111010011111000010100011110101110000100111110001110101110000101001000001111100101101011100001010010000011111001110100011110101110000100111110100001100110011001100110001111101000010100011110101110000011111001101011100001010001111100111110001000101000111101011100001111011001000111101011100001011011110010011001100110011001101010111101101100110011001100110011101111011111001100110011001100111011110111110000101000111101011110111101110001111010111000010100101111011011100001010001111011001011110111000101000111101011100010111101110011001100110011001101101111011011100001010001111011001011110110100001010001111010111010111101100101000111101011100001101111011001010001111010111000011011110110011110101110000101001010111101100110011001100110011010101111011001000111101011100001011011110110010001111010111000010110111101100110011001100110011010101111011001011100001010001111011011110110001010001111010111000110111101100011001100110011001101101111011000010100011110101110001011110110000101000111101011100010111101100000101000111101011100101111011000000000000000000000001011110110001100110011001100110110111101100111101011100001010010101111011011110101110000101001001011110110111010111000010100100010111101101011100001010001111011101111011010000101000111101011101011110110100001010001111010111010111101101100110011001100110011101111011100110011001100110011011011110111100001010001111010111010111101110011110101110000101001101111011011010111000010100011111011110110100011110101110000101010111101101001100110011001100110101111011011010111000010100011111011110111000111101011100001010010111101110100011110101110000101101111011100010100011110101110001011110110110000101000111101011110111101100111101011100001010010101111011010100011110101110000111011110110111101011100001010010010111101110011001100110011001101101111011101011100001010001111011011110111010111000010100011110110111101110101110000101000111101101111011100110011001100110011011011110111000000000000000000000010111101110000000000000000000000101111011100001010001111010111001011110110101110000101000111101110111101101000010100011110101110101111011010111000010100011110111011110111011001100110011001101010111101111101011100001010001111101111011111000010100011110101111011110111011110101110000101001010111101110010100011110101110001101111011101000111101011100001011011110111011110101110000101001010111101111010001111010111000011101111011101110000101000111101101011110111010111000010100011110110111101110011110101110000101001101111011100010100011110101110001011110111000000000000000000000010111101110101110000101000111101101111011111100001010001111011001011110111110101110000101000111110111101111001100110011001100110101111011111010111000010100011111011111000000101000111101011100010111101111111010111000010100100101111011101010001111010111000011011110111001100110011001100110110111101110100011110101110000101101111011101100110011001100110101011110111001100110011001100110110111101101110101110000101001000101111011100000000000000000000001011110111000101000111101011100010111101110101110000101000111101101111011101111010111000010100101011110111000111101011100001010010111101101010001111010111000011101111011010001111010111000010101011110110110000101000111101011110111101101001100110011001100110101111011000110011001100110011011011110101111010111000010100100010111101100000000000000000000000101111011000010100011110101110001011110110000111101011100001010010111101100011110101110000101001101111011001111010111000010100101011110110100110011001100110011010111101100111000010100011110110101111011000111101011100001010011011110101010111000010100011110110111101001011100001010001111011101111010011110101110000101001001011110101101011100001010001111110111101011001100110011001100110101111010010111000010100011110111011110011110101110000101000111110111100100011110101110000101001101111000010001111010111000010101011101111001100110011001100110110111011110011001100110011001101101111000010001111010111000010101011110010011001100110011001101010111100101011100001010001111011101111001100110011001100110011011011110011101011100001010001111110111100101110000101000111101100101110111100110011001100110011010011101111001100110011001100110100111100001110000101000111101100001111000100110011001100110011010011101111110101110000101000111100111011011101011100001010001111000000000000000000000000000000001011101110100011110101110000101010111010101000111101011100001010001111001001100110011001100110100011110100100011110101110000101000111101000011110101110000101001001111000010001111010111000010101011101111110101110000101000111100111011001000111101011100001010001111001011100001010001111011000011110011110101110000101000111100111100011101011100001010001111101110110010001111010111000010100011101101110101110000101000111100111100010011001100110011001101000000000000000000000000000000001011110100100011110101110000101010111101100001010001111010111000101111011000011110101110000101001011110100111000010100011110110010111100101000111101011100001010101110111010001111010111000010101011101010100011110101110000101010111100000011110101110000101001101111001000111101011100001010011011110011001100110011001100110110111101000000000000000000000000101111001100110011001100110011011011110010001111010111000010100100111011011101011100001010001111001111001000010100011110101110000011110010101110000101000111101100111100101011100001010001111011001111001001100110011001100110100011110010001111010111000010100100111011011101011100001010001111101110110010001111010111000010100000000000000000000000000000000000111100011101011100001010001111001111001111010111000010100011110011110100011001100110011001101000111100110011001100110011001101001111000010001111010111000010100011101101110101110000101000111100111011110011001100110011001101001111001000010100011110101110000011110011010111000010100011110100111101000101000111101011100001001111010000010100011110101110000011110010101110000101000111101100111100001110000101000111101100101110110111010111000010100011111011110001001100110011001100110110111100100001010001111010111000101111000110000101000111101011101011110010001111010111000010100110111100100110011001100110011010101111001101011100001010001111011011110100011001100110011001101010111101000000000000000000000000101111001000010100011110101110001011110010011001100110011001101010111101000011110101110000101001101111010010100011110101110000111011110100001010001111010111000110111100111000010100011110101110101111010001100110011001100110101011110101011100001010001111011010111101011110101110000101001000101111010111010111000010100011111011110101001100110011001100110110111101001011100001010001111011101111010010100011110101110000111011110101001100110011001100110110111101011000010100011110101110101111010101011100001010001111011011110101001100110011001100110110111101001110000101000111101100101111010000111101011100001010011011110011010111000010100011110110111100111000010100011110101110101111001100110011001100110011011011110001110101110000101000111100111100001110000101000111101100001111010010111000010100011110110011110110000010100011110101110000111101101101011100001010001111001111011110011001100110011001100011111000100101000111101011100000111110010000101000111101011100001111100101010111000010100011110011111001011101011100001010010000111110011000010100011110101110001111100100101000111101011100010011111000001010001111010111000100111101001011100001010001111011101111010101110000101000111101101011111000000110011001100110011010111110001010111000010100011111101111100010100011110101110000111011111000001100110011001100110110111101111000111101011100001010101111011100010100011110101110001011110111001100110011001100110110111101110110011001100110011010101111011101100110011001100110101011110111000101000111101011100010111101101011100001010001111011101111011001111010111000010100101011110110001100110011001100110110111101101001100110011001100110101111011011101011100001010010001011110111000101000111101011100010111101110000101000111101011100101111011100001010001111010111001011110111001111010111000010100110111101110010100011110101110001101111011011001100110011001100111011110110011001100110011001101010111101100111101011100001010010101111011011001100110011001100111011110111000111101011100001010010111101110101110000101000111101101111011100111101011100001010011011110111000010100011110101110010111101101110000101000111101100101111011010101110000101000111111011110110001111010111000010100110111101100000000000000000000000101111011001110000101000111101101011110111000101000111101011100010111101110101110000101000111101101111011101010001111010111000011011110111001010001111010111000110111101110000101000111101011100101111011100001010001111010111001011110111000010100011110101110010111101110001111010111000010100101111011100111101011100001010011011110111011110101110000101001010111101110100011110101110000101101111011011000010100011110101111011110110101110000101000111101110111101110110011001100110011010101111100000001010001111010111001011111000001000111101011100001110111110000000101000111101011100101111011111010111000010100011111011110111101110000101000111101110111101111011100001010001111011101111011110111000010100011110111011110111101110000101000111101110111101111010111000010100011111101111011110001111010111000010101011110111011001100110011001101010111101110110011001100110011010101111011110100011110101110000111011110111110101110000101000111110111101111100001010001111010111101111011110011001100110011001101011110111011100001010001111011010111101110100011110101110000101101111011110011001100110011001101011110111110000101000111101011110111101111100110011001100110011101111011111100001010001111011001011110111110101110000101000111110111101111001100110011001100110101111011100110011001100110011011011110110101110000101000111101110111101100110011001100110011010101111011001100110011001100110101011110110101011100001010001111110111101101100001010001111010111101111011001011100001010001111011011110110000000000000000000000010111101100101110000101000111101101111011100001010001111010111001011110111001111010111000010100110111101101101011100001010001111101111011001110000101000111101101011110110000111101011100001010010111101100001010001111010111000101111011000010100011110101110001011110110000111101011100001010010111101100111101011100001010010101111011010111000010100011110111011110110101110000101000111101110111101101001100110011001100110101111011001010001111010111000011011110110000111101011100001010010111101011010111000010100011111101111010101011100001010001111011011110100101000111101011100001110111101000000000000000000000000101111001100110011001100110011011011110011010111000010100011110110111101000001010001111010111000101111010000101000111101011100011011110100000101000111101011100010111101000110011001100110011010101111010010001111010111000010101011110100010100011110101110000110111101000111101011100001010010101111010100110011001100110011011011110101001100110011001100110110111101001000111101011100001010101111010001010001111010111000011011110100000000000000000000000010111101000010100011110101110001101111010010001111010111000010101011110100101000111101011100001110111100111101011100001010001111101111001111010111000010100011111011110101010111000010100011110110111101100000000000000000000000101111010101011100001010001111011011110100100011110101110000101010111101000000000000000000000000101111010000101000111101011100011011110100101110000101000111101110111101010111000010100011110110101111010110101110000101000111111011110101011100001010001111011010111101000110011001100110011010101111001100110011001100110011011011110011000010100011110101110010111100110101110000101000111101101111001001100110011001100110101011110000001111010111000010100110111100001000111101011100001010101111000011100001010001111011001011110001001100110011001100110110111100011000010100011110101110101111001001100110011001100110101011110010001111010111000010100110111011011101011100001010001111101110101010001111010111000010101011101111001100110011001100110110111011111101011100001010001111